% Tab-separated result file for Population 171
% DIFF:1 TRADE:0	% Population 171
% Model run from 0 to 11500 at stepsize  5
%\kappa=550	\omega=0.04	\gamma_b=0.0040
%\delta_t=0.1	\ndommaxmean=7.0	spreadv=0.1
% time	natfert	actfert	prod	rgrowth	dens	techn	ndom	qfarm	npp	rgr	ndomax
  0	0.3733	0.3730	0.9255	0.0000	0.0301	1.0005	0.2500	0.0400	192.5000	0.0007	1.0995
  2	0.3737	0.3734	0.9264	0.0000	0.0305	1.0026	0.2501	0.0400	192.5000	0.0007	1.0995
  4	0.3740	0.3737	0.9273	0.0000	0.0309	1.0047	0.2502	0.0400	192.5000	0.0007	1.0995
  6	0.3744	0.3741	0.9282	0.0000	0.0314	1.0068	0.2503	0.0400	192.5000	0.0007	1.0995
  8	0.3747	0.3744	0.9291	0.0000	0.0318	1.0088	0.2504	0.0400	192.5000	0.0007	1.0995
 10	0.3751	0.3748	0.9300	0.0000	0.0322	1.0109	0.2505	0.0400	192.5000	0.0007	1.0995
 12	0.3755	0.3751	0.9309	0.0000	0.0326	1.0130	0.2506	0.0400	192.5000	0.0006	1.0995
 14	0.3758	0.3755	0.9318	0.0000	0.0330	1.0151	0.2507	0.0400	192.5000	0.0006	1.0995
 16	0.3762	0.3758	0.9327	0.0000	0.0335	1.0172	0.2508	0.0400	192.5000	0.0006	1.0995
 18	0.3765	0.3762	0.9335	0.0000	0.0339	1.0193	0.2509	0.0400	192.5000	0.0006	1.0995
 20	0.3769	0.3765	0.9344	0.0000	0.0343	1.0214	0.2510	0.0400	192.5000	0.0006	1.0995
 22	0.3772	0.3769	0.9353	0.0000	0.0347	1.0235	0.2512	0.0400	192.5000	0.0006	1.0995
 24	0.3776	0.3772	0.9362	0.0000	0.0352	1.0256	0.2513	0.0400	192.5000	0.0006	1.0995
 26	0.3779	0.3776	0.9371	0.0000	0.0356	1.0277	0.2514	0.0400	192.5000	0.0006	1.0995
 28	0.3783	0.3779	0.9380	0.0000	0.0360	1.0298	0.2515	0.0400	192.5000	0.0006	1.0995
 30	0.3786	0.3783	0.9389	0.0000	0.0365	1.0319	0.2516	0.0400	192.5000	0.0006	1.0995
 32	0.3790	0.3786	0.9398	0.0000	0.0369	1.0340	0.2517	0.0400	192.5000	0.0006	1.0995
 34	0.3793	0.3790	0.9406	0.0000	0.0373	1.0361	0.2518	0.0400	192.5000	0.0006	1.0995
 36	0.3797	0.3793	0.9415	0.0000	0.0377	1.0382	0.2519	0.0400	192.5000	0.0006	1.0995
 38	0.3801	0.3797	0.9424	0.0000	0.0382	1.0403	0.2520	0.0400	192.5000	0.0006	1.0995
 40	0.3804	0.3800	0.9433	0.0000	0.0386	1.0424	0.2521	0.0400	192.5000	0.0006	1.0995
 42	0.3808	0.3804	0.9442	0.0000	0.0390	1.0446	0.2522	0.0400	192.5000	0.0005	1.0995
 44	0.3811	0.3807	0.9451	0.0000	0.0395	1.0467	0.2523	0.0400	192.5000	0.0005	1.0995
 46	0.3815	0.3811	0.9459	0.0000	0.0399	1.0488	0.2524	0.0400	192.5000	0.0005	1.0995
 48	0.3818	0.3814	0.9468	0.0000	0.0403	1.0509	0.2526	0.0400	192.5000	0.0005	1.0995
 50	0.3822	0.3818	0.9477	0.0000	0.0407	1.0530	0.2527	0.0400	192.5000	0.0005	1.0995
 52	0.3825	0.3821	0.9486	0.0000	0.0412	1.0551	0.2528	0.0400	192.5000	0.0005	1.0995
 54	0.3829	0.3825	0.9495	0.0000	0.0416	1.0573	0.2529	0.0400	192.5000	0.0005	1.0995
 56	0.3832	0.3828	0.9503	0.0000	0.0420	1.0594	0.2530	0.0400	192.5000	0.0005	1.0995
 58	0.3836	0.3831	0.9512	0.0000	0.0424	1.0615	0.2531	0.0400	192.5000	0.0005	1.0995
 60	0.3839	0.3835	0.9521	0.0000	0.0428	1.0637	0.2532	0.0400	192.5000	0.0005	1.0995
 62	0.3843	0.3838	0.9530	0.0000	0.0433	1.0658	0.2533	0.0400	192.5000	0.0005	1.0995
 64	0.3846	0.3842	0.9539	0.0000	0.0437	1.0679	0.2535	0.0400	192.5000	0.0005	1.0995
 66	0.3850	0.3845	0.9547	0.0000	0.0441	1.0701	0.2536	0.0400	192.5000	0.0005	1.0995
 68	0.3853	0.3849	0.9556	0.0000	0.0445	1.0722	0.2537	0.0400	192.5000	0.0005	1.0995
 70	0.3857	0.3852	0.9565	0.0000	0.0449	1.0743	0.2538	0.0400	192.5000	0.0004	1.0995
 72	0.3860	0.3856	0.9574	0.0000	0.0453	1.0765	0.2539	0.0400	192.5000	0.0004	1.0995
 74	0.3864	0.3859	0.9583	0.0000	0.0457	1.0786	0.2540	0.0400	192.5000	0.0004	1.0995
 76	0.3867	0.3863	0.9591	0.0000	0.0461	1.0808	0.2541	0.0400	192.5000	0.0004	1.0995
 78	0.3871	0.3866	0.9600	0.0000	0.0465	1.0829	0.2543	0.0400	192.5000	0.0004	1.0995
 80	0.3875	0.3870	0.9609	0.0000	0.0469	1.0851	0.2544	0.0400	192.5000	0.0004	1.0995
 82	0.3878	0.3873	0.9618	0.0000	0.0473	1.0872	0.2545	0.0400	192.5000	0.0004	1.0995
 84	0.3882	0.3877	0.9626	0.0000	0.0477	1.0894	0.2546	0.0400	192.5000	0.0004	1.0995
 86	0.3885	0.3880	0.9635	0.0000	0.0481	1.0915	0.2547	0.0400	192.5000	0.0004	1.0995
 88	0.3889	0.3884	0.9644	0.0000	0.0485	1.0937	0.2549	0.0400	192.5000	0.0004	1.0995
 90	0.3892	0.3887	0.9653	0.0000	0.0489	1.0958	0.2550	0.0400	192.5000	0.0004	1.0995
 92	0.3896	0.3890	0.9661	0.0000	0.0493	1.0980	0.2551	0.0400	192.5000	0.0004	1.0995
 94	0.3899	0.3894	0.9670	0.0000	0.0497	1.1001	0.2552	0.0400	192.5000	0.0004	1.0995
 96	0.3903	0.3897	0.9679	0.0000	0.0500	1.1023	0.2553	0.0400	192.5000	0.0004	1.0995
 98	0.3906	0.3901	0.9688	0.0000	0.0504	1.1045	0.2555	0.0400	192.5000	0.0004	1.0995
100	0.3910	0.3904	0.9696	0.0000	0.0508	1.1066	0.2556	0.0400	192.5000	0.0004	1.0995
102	0.3913	0.3908	0.9705	0.0000	0.0512	1.1088	0.2557	0.0400	192.5000	0.0004	1.0995
104	0.3917	0.3911	0.9714	0.0000	0.0515	1.1110	0.2558	0.0400	192.5000	0.0003	1.0995
106	0.3920	0.3915	0.9723	0.0000	0.0519	1.1131	0.2560	0.0400	192.5000	0.0003	1.0995
108	0.3924	0.3918	0.9731	0.0000	0.0523	1.1153	0.2561	0.0400	192.5000	0.0003	1.0995
110	0.3927	0.3922	0.9740	0.0000	0.0526	1.1175	0.2562	0.0400	192.5000	0.0003	1.0995
112	0.3931	0.3925	0.9749	0.0000	0.0530	1.1197	0.2563	0.0400	192.5000	0.0003	1.0995
114	0.3934	0.3929	0.9757	0.0000	0.0533	1.1218	0.2565	0.0400	192.5000	0.0003	1.0995
116	0.3938	0.3932	0.9766	0.0000	0.0537	1.1240	0.2566	0.0400	192.5000	0.0003	1.0995
118	0.3941	0.3935	0.9775	0.0000	0.0541	1.1262	0.2567	0.0400	192.5000	0.0003	1.0995
120	0.3945	0.3939	0.9783	0.0000	0.0544	1.1284	0.2568	0.0400	192.5000	0.0003	1.0995
122	0.3948	0.3942	0.9792	0.0000	0.0547	1.1305	0.2570	0.0400	192.5000	0.0003	1.0995
124	0.3952	0.3946	0.9801	0.0000	0.0551	1.1327	0.2571	0.0400	192.5000	0.0003	1.0995
126	0.3955	0.3949	0.9809	0.0000	0.0554	1.1349	0.2572	0.0400	192.5000	0.0003	1.0995
128	0.3959	0.3953	0.9818	0.0000	0.0558	1.1371	0.2574	0.0400	192.5000	0.0003	1.0995
130	0.3962	0.3956	0.9827	0.0000	0.0561	1.1393	0.2575	0.0400	192.5000	0.0003	1.0995
132	0.3966	0.3960	0.9835	0.0000	0.0564	1.1415	0.2576	0.0400	192.5000	0.0003	1.0995
134	0.3969	0.3963	0.9844	0.0000	0.0567	1.1437	0.2578	0.0400	192.5000	0.0003	1.0995
136	0.3973	0.3966	0.9853	0.0000	0.0571	1.1459	0.2579	0.0400	192.5000	0.0003	1.0995
138	0.3976	0.3970	0.9861	0.0000	0.0574	1.1480	0.2580	0.0400	192.5000	0.0003	1.0995
140	0.3980	0.3973	0.9870	0.0000	0.0577	1.1502	0.2582	0.0400	192.5000	0.0003	1.0995
142	0.3983	0.3977	0.9879	0.0000	0.0580	1.1524	0.2583	0.0400	192.5000	0.0003	1.0995
144	0.3987	0.3980	0.9887	0.0000	0.0583	1.1546	0.2584	0.0400	192.5000	0.0003	1.0995
146	0.3990	0.3984	0.9896	0.0000	0.0586	1.1568	0.2586	0.0400	192.5000	0.0002	1.0995
148	0.3994	0.3987	0.9904	0.0000	0.0589	1.1590	0.2587	0.0400	192.5000	0.0002	1.0995
150	0.3997	0.3991	0.9913	0.0000	0.0593	1.1612	0.2588	0.0400	192.5000	0.0002	1.0995
152	0.4000	0.3994	0.9922	0.0000	0.0596	1.1634	0.2590	0.0400	192.5000	0.0002	1.0995
154	0.4004	0.3998	0.9930	0.0000	0.0598	1.1656	0.2591	0.0400	192.5000	0.0002	1.0995
156	0.4007	0.4001	0.9939	0.0000	0.0601	1.1678	0.2592	0.0400	192.5000	0.0002	1.0995
158	0.4011	0.4004	0.9947	0.0000	0.0604	1.1700	0.2594	0.0400	192.5000	0.0002	1.0995
160	0.4014	0.4008	0.9956	0.0000	0.0607	1.1723	0.2595	0.0400	192.5000	0.0002	1.0995
162	0.4018	0.4011	0.9965	0.0000	0.0610	1.1745	0.2597	0.0400	192.5000	0.0002	1.0995
164	0.4021	0.4015	0.9973	0.0000	0.0613	1.1767	0.2598	0.0400	192.5000	0.0002	1.0995
166	0.4025	0.4018	0.9982	0.0000	0.0616	1.1789	0.2599	0.0400	192.5000	0.0002	1.0995
168	0.4028	0.4022	0.9990	0.0000	0.0619	1.1811	0.2601	0.0400	192.5000	0.0002	1.0995
170	0.4032	0.4025	0.9999	0.0000	0.0621	1.1833	0.2602	0.0400	192.5000	0.0002	1.0995
172	0.4035	0.4028	1.0007	0.0000	0.0624	1.1855	0.2604	0.0400	192.5000	0.0002	1.0995
174	0.4039	0.4032	1.0016	0.0000	0.0627	1.1877	0.2605	0.0400	192.5000	0.0002	1.0995
176	0.4042	0.4035	1.0024	0.0000	0.0629	1.1900	0.2607	0.0400	192.5000	0.0002	1.0995
178	0.4046	0.4039	1.0033	0.0000	0.0632	1.1922	0.2608	0.0400	192.5000	0.0002	1.0995
180	0.4049	0.4042	1.0042	0.0000	0.0635	1.1944	0.2610	0.0400	192.5000	0.0002	1.0995
182	0.4053	0.4046	1.0050	0.0000	0.0637	1.1966	0.2611	0.0400	192.5000	0.0002	1.0995
184	0.4056	0.4049	1.0059	0.0000	0.0640	1.1988	0.2612	0.0400	192.5000	0.0002	1.0995
186	0.4060	0.4053	1.0067	0.0000	0.0642	1.2010	0.2614	0.0400	192.5000	0.0002	1.0995
188	0.4063	0.4056	1.0076	0.0000	0.0645	1.2033	0.2615	0.0400	192.5000	0.0002	1.0995
190	0.4067	0.4059	1.0084	0.0000	0.0647	1.2055	0.2617	0.0400	192.5000	0.0002	1.0995
192	0.4070	0.4063	1.0093	0.0000	0.0650	1.2077	0.2618	0.0400	192.5000	0.0002	1.0995
194	0.4073	0.4066	1.0101	0.0000	0.0652	1.2099	0.2620	0.0400	192.5000	0.0002	1.0995
196	0.4077	0.4070	1.0110	0.0000	0.0655	1.2122	0.2621	0.0400	192.5000	0.0002	1.0995
198	0.4080	0.4073	1.0118	0.0000	0.0657	1.2144	0.2623	0.0400	192.5000	0.0002	1.0995
200	0.4084	0.4077	1.0126	0.0000	0.0660	1.2166	0.2624	0.0400	192.5000	0.0002	1.0995
202	0.4087	0.4080	1.0135	0.0000	0.0662	1.2189	0.2626	0.0400	192.5000	0.0002	1.0995
204	0.4091	0.4083	1.0143	0.0000	0.0664	1.2211	0.2627	0.0400	192.5000	0.0002	1.0995
206	0.4094	0.4087	1.0152	0.0000	0.0667	1.2233	0.2629	0.0400	192.5000	0.0002	1.0995
208	0.4098	0.4090	1.0160	0.0000	0.0669	1.2255	0.2630	0.0400	192.5000	0.0002	1.0995
210	0.4101	0.4094	1.0169	0.0000	0.0671	1.2278	0.2632	0.0400	192.5000	0.0002	1.0995
212	0.4105	0.4097	1.0177	0.0000	0.0674	1.2300	0.2634	0.0400	192.5000	0.0001	1.0995
214	0.4108	0.4101	1.0186	0.0000	0.0676	1.2322	0.2635	0.0400	192.5000	0.0001	1.0995
216	0.4112	0.4104	1.0194	0.0000	0.0678	1.2345	0.2637	0.0400	192.5000	0.0001	1.0995
218	0.4115	0.4107	1.0202	0.0000	0.0680	1.2367	0.2638	0.0400	192.5000	0.0001	1.0995
220	0.4118	0.4111	1.0211	0.0000	0.0683	1.2390	0.2640	0.0400	192.5000	0.0001	1.0995
222	0.4122	0.4114	1.0219	0.0000	0.0685	1.2412	0.2641	0.0400	192.5000	0.0001	1.0995
224	0.4125	0.4118	1.0228	0.0000	0.0687	1.2434	0.2643	0.0400	192.5000	0.0001	1.0995
226	0.4129	0.4121	1.0236	0.0000	0.0689	1.2457	0.2645	0.0400	192.5000	0.0001	1.0995
228	0.4132	0.4125	1.0244	0.0000	0.0691	1.2479	0.2646	0.0400	192.5000	0.0001	1.0995
230	0.4136	0.4128	1.0253	0.0000	0.0693	1.2502	0.2648	0.0400	192.5000	0.0001	1.0995
232	0.4139	0.4131	1.0261	0.0000	0.0696	1.2524	0.2649	0.0400	192.5000	0.0001	1.0995
234	0.4143	0.4135	1.0269	0.0000	0.0698	1.2546	0.2651	0.0400	192.5000	0.0001	1.0995
236	0.4146	0.4138	1.0278	0.0000	0.0700	1.2569	0.2653	0.0400	192.5000	0.0001	1.0995
238	0.4149	0.4142	1.0286	0.0000	0.0702	1.2591	0.2654	0.0400	192.5000	0.0001	1.0995
240	0.4153	0.4145	1.0294	0.0000	0.0704	1.2614	0.2656	0.0400	192.5000	0.0001	1.0995
242	0.4156	0.4148	1.0303	0.0000	0.0706	1.2636	0.2658	0.0400	192.5000	0.0001	1.0995
244	0.4160	0.4152	1.0311	0.0000	0.0708	1.2659	0.2659	0.0400	192.5000	0.0001	1.0995
246	0.4163	0.4155	1.0319	0.0000	0.0710	1.2681	0.2661	0.0400	192.5000	0.0001	1.0995
248	0.4167	0.4159	1.0328	0.0000	0.0712	1.2704	0.2663	0.0400	192.5000	0.0001	1.0995
250	0.4170	0.4162	1.0336	0.0000	0.0714	1.2726	0.2664	0.0400	192.5000	0.0001	1.0995
252	0.4174	0.4166	1.0344	0.0000	0.0716	1.2749	0.2666	0.0400	192.5000	0.0001	1.0995
254	0.4177	0.4169	1.0353	0.0000	0.0718	1.2771	0.2668	0.0400	192.5000	0.0001	1.0995
256	0.4180	0.4172	1.0361	0.0000	0.0720	1.2794	0.2669	0.0400	192.5000	0.0001	1.0995
258	0.4184	0.4176	1.0369	0.0000	0.0722	1.2816	0.2671	0.0400	192.5000	0.0001	1.0995
260	0.4187	0.4179	1.0378	0.0000	0.0724	1.2839	0.2673	0.0400	192.5000	0.0001	1.0995
262	0.4191	0.4183	1.0386	0.0000	0.0726	1.2861	0.2675	0.0400	192.5000	0.0001	1.0995
264	0.4194	0.4186	1.0394	0.0000	0.0728	1.2884	0.2676	0.0400	192.5000	0.0001	1.0995
266	0.4198	0.4189	1.0402	0.0000	0.0729	1.2907	0.2678	0.0400	192.5000	0.0001	1.0995
268	0.4201	0.4193	1.0411	0.0000	0.0731	1.2929	0.2680	0.0400	192.5000	0.0001	1.0995
270	0.4205	0.4196	1.0419	0.0000	0.0733	1.2952	0.2681	0.0400	192.5000	0.0001	1.0995
272	0.4208	0.4200	1.0427	0.0000	0.0735	1.2974	0.2683	0.0400	192.5000	0.0001	1.0995
274	0.4211	0.4203	1.0435	0.0000	0.0737	1.2997	0.2685	0.0400	192.5000	0.0001	1.0995
276	0.4215	0.4206	1.0444	0.0000	0.0739	1.3019	0.2687	0.0400	192.5000	0.0001	1.0995
278	0.4218	0.4210	1.0452	0.0000	0.0741	1.3042	0.2689	0.0400	192.5000	0.0001	1.0995
280	0.4222	0.4213	1.0460	0.0000	0.0742	1.3065	0.2690	0.0400	192.5000	0.0001	1.0995
282	0.4225	0.4217	1.0468	0.0000	0.0744	1.3087	0.2692	0.0400	192.5000	0.0001	1.0995
284	0.4229	0.4220	1.0476	0.0000	0.0746	1.3110	0.2694	0.0400	192.5000	0.0001	1.0995
286	0.4232	0.4223	1.0485	0.0000	0.0748	1.3133	0.2696	0.0400	192.5000	0.0001	1.0995
288	0.4235	0.4227	1.0493	0.0000	0.0750	1.3155	0.2698	0.0400	192.5000	0.0001	1.0995
290	0.4239	0.4230	1.0501	0.0000	0.0751	1.3178	0.2699	0.0400	192.5000	0.0001	1.0995
292	0.4242	0.4234	1.0509	0.0000	0.0753	1.3201	0.2701	0.0400	192.5000	0.0001	1.0995
294	0.4246	0.4237	1.0517	0.0000	0.0755	1.3223	0.2703	0.0400	192.5000	0.0001	1.0995
296	0.4249	0.4240	1.0526	0.0000	0.0757	1.3246	0.2705	0.0400	192.5000	0.0001	1.0995
298	0.4252	0.4244	1.0534	0.0000	0.0759	1.3269	0.2707	0.0400	192.5000	0.0001	1.0995
300	0.4256	0.4247	1.0542	0.0000	0.0760	1.3291	0.2709	0.0400	192.5000	0.0001	1.0995
302	0.4259	0.4251	1.0550	0.0000	0.0762	1.3314	0.2711	0.0400	192.5000	0.0001	1.0995
304	0.4263	0.4254	1.0558	0.0000	0.0764	1.3337	0.2712	0.0400	192.5000	0.0001	1.0995
306	0.4266	0.4257	1.0566	0.0000	0.0766	1.3359	0.2714	0.0400	192.5000	0.0001	1.0995
308	0.4270	0.4261	1.0574	0.0000	0.0767	1.3382	0.2716	0.0400	192.5000	0.0001	1.0995
310	0.4273	0.4264	1.0582	0.0000	0.0769	1.3405	0.2718	0.0400	192.5000	0.0001	1.0995
312	0.4276	0.4267	1.0591	0.0000	0.0771	1.3428	0.2720	0.0400	192.5000	0.0001	1.0995
314	0.4280	0.4271	1.0599	0.0000	0.0773	1.3450	0.2722	0.0400	192.5000	0.0001	1.0995
316	0.4283	0.4274	1.0607	0.0000	0.0774	1.3473	0.2724	0.0400	192.5000	0.0001	1.0995
318	0.4287	0.4278	1.0615	0.0000	0.0776	1.3496	0.2726	0.0400	192.5000	0.0001	1.0995
320	0.4290	0.4281	1.0623	0.0000	0.0778	1.3519	0.2728	0.0400	192.5000	0.0001	1.0995
322	0.4293	0.4284	1.0631	0.0000	0.0779	1.3541	0.2730	0.0400	192.5000	0.0001	1.0995
324	0.4297	0.4288	1.0639	0.0000	0.0781	1.3564	0.2732	0.0400	192.5000	0.0001	1.0995
326	0.4300	0.4291	1.0647	0.0000	0.0783	1.3587	0.2734	0.0400	192.5000	0.0001	1.0995
328	0.4304	0.4295	1.0655	0.0000	0.0784	1.3610	0.2736	0.0400	192.5000	0.0001	1.0995
330	0.4307	0.4298	1.0663	0.0000	0.0786	1.3633	0.2738	0.0400	192.5000	0.0001	1.0995
332	0.4310	0.4301	1.0671	0.0000	0.0788	1.3655	0.2740	0.0400	192.5000	0.0001	1.0995
334	0.4314	0.4305	1.0680	0.0000	0.0789	1.3678	0.2742	0.0400	192.5000	0.0001	1.0995
336	0.4317	0.4308	1.0688	0.0000	0.0791	1.3701	0.2744	0.0400	192.5000	0.0001	1.0995
338	0.4321	0.4311	1.0696	0.0000	0.0793	1.3724	0.2746	0.0400	192.5000	0.0001	1.0995
340	0.4324	0.4315	1.0704	0.0000	0.0795	1.3747	0.2748	0.0400	192.5000	0.0001	1.0995
342	0.4327	0.4318	1.0712	0.0000	0.0796	1.3770	0.2750	0.0400	192.5000	0.0001	1.0995
344	0.4331	0.4322	1.0720	0.0000	0.0798	1.3793	0.2752	0.0400	192.5000	0.0001	1.0995
346	0.4334	0.4325	1.0728	0.0000	0.0800	1.3815	0.2754	0.0400	192.5000	0.0001	1.0995
348	0.4338	0.4328	1.0736	0.0000	0.0801	1.3838	0.2756	0.0400	192.5000	0.0001	1.0995
350	0.4341	0.4332	1.0744	0.0000	0.0803	1.3861	0.2758	0.0400	192.5000	0.0001	1.0995
352	0.4344	0.4335	1.0752	0.0000	0.0804	1.3884	0.2760	0.0400	192.5000	0.0001	1.0995
354	0.4348	0.4338	1.0760	0.0000	0.0806	1.3907	0.2763	0.0400	192.5000	0.0001	1.0995
356	0.4351	0.4342	1.0768	0.0000	0.0808	1.3930	0.2765	0.0400	192.5000	0.0001	1.0995
358	0.4355	0.4345	1.0776	0.0000	0.0809	1.3953	0.2767	0.0400	192.5000	0.0001	1.0995
360	0.4358	0.4348	1.0784	0.0000	0.0811	1.3976	0.2769	0.0400	192.5000	0.0001	1.0995
362	0.4361	0.4352	1.0792	0.0000	0.0813	1.3999	0.2771	0.0400	192.5000	0.0001	1.0995
364	0.4365	0.4355	1.0800	0.0000	0.0814	1.4022	0.2773	0.0400	192.5000	0.0001	1.0995
366	0.4368	0.4359	1.0808	0.0000	0.0816	1.4045	0.2776	0.0400	192.5000	0.0001	1.0995
368	0.4372	0.4362	1.0816	0.0000	0.0818	1.4068	0.2778	0.0400	192.5000	0.0001	1.0995
370	0.4375	0.4365	1.0824	0.0000	0.0819	1.4091	0.2780	0.0400	192.5000	0.0001	1.0995
372	0.4378	0.4369	1.0832	0.0000	0.0821	1.4114	0.2782	0.0400	192.5000	0.0001	1.0995
374	0.4382	0.4372	1.0839	0.0000	0.0823	1.4137	0.2785	0.0400	192.5000	0.0001	1.0995
376	0.4385	0.4375	1.0847	0.0000	0.0824	1.4160	0.2787	0.0400	192.5000	0.0001	1.0995
378	0.4389	0.4379	1.0855	0.0000	0.0826	1.4183	0.2789	0.0400	192.5000	0.0001	1.0995
380	0.4392	0.4382	1.0863	0.0000	0.0828	1.4206	0.2792	0.0400	192.5000	0.0001	1.0995
382	0.4395	0.4385	1.0871	0.0000	0.0829	1.4229	0.2795	0.0400	192.5000	0.0001	1.0995
384	0.4399	0.4389	1.0879	0.0000	0.0831	1.4253	0.2798	0.0400	192.5000	0.0001	1.0995
386	0.4402	0.4392	1.0888	0.0000	0.0833	1.4276	0.2802	0.0400	192.5000	0.0001	1.0995
388	0.4405	0.4395	1.0896	0.0000	0.0835	1.4300	0.2805	0.0400	192.5000	0.0001	1.0995
390	0.4409	0.4399	1.0904	0.0000	0.0837	1.4323	0.2809	0.0400	192.5000	0.0001	1.0995
392	0.4412	0.4402	1.0912	0.0000	0.0839	1.4347	0.2813	0.0400	192.5000	0.0001	1.0995
394	0.4416	0.4406	1.0920	0.0000	0.0841	1.4370	0.2817	0.0400	192.5000	0.0001	1.0995
396	0.4419	0.4409	1.0928	0.0000	0.0843	1.4394	0.2821	0.0400	192.5000	0.0001	1.0995
398	0.4422	0.4412	1.0936	0.0000	0.0845	1.4418	0.2825	0.0400	192.5000	0.0001	1.0995
400	0.4426	0.4416	1.0944	0.0000	0.0846	1.4441	0.2829	0.0400	192.5000	0.0001	1.0995
402	0.4426	0.4416	1.0952	0.0000	0.0848	1.4465	0.2833	0.0400	192.5000	0.0001	1.0995
404	0.4426	0.4415	1.0960	0.0000	0.0850	1.4489	0.2838	0.0400	192.5000	0.0001	1.0995
406	0.4426	0.4415	1.0969	0.0000	0.0852	1.4513	0.2843	0.0400	192.5000	0.0001	1.0995
408	0.4426	0.4415	1.0977	0.0000	0.0854	1.4537	0.2848	0.0400	192.5000	0.0000	1.0995
410	0.4426	0.4415	1.0985	0.0000	0.0856	1.4561	0.2853	0.0400	192.5000	0.0000	1.0995
412	0.4426	0.4415	1.0993	0.0000	0.0857	1.4585	0.2858	0.0400	192.5000	0.0000	1.0995
414	0.4426	0.4415	1.1001	0.0000	0.0859	1.4609	0.2863	0.0400	192.5000	0.0000	1.0995
416	0.4426	0.4415	1.1009	0.0000	0.0861	1.4633	0.2869	0.0400	192.5000	0.0000	1.0995
418	0.4426	0.4415	1.1017	0.0000	0.0862	1.4657	0.2874	0.0400	192.5000	0.0000	1.0995
420	0.4426	0.4415	1.1025	0.0000	0.0864	1.4681	0.2880	0.0400	192.5000	0.0000	1.0995
422	0.4426	0.4415	1.1034	0.0000	0.0865	1.4705	0.2885	0.0400	192.5000	0.0000	1.0995
424	0.4426	0.4415	1.1041	0.0000	0.0867	1.4729	0.2889	0.0400	192.5000	0.0000	1.0995
426	0.4426	0.4415	1.1049	0.0000	0.0868	1.4752	0.2895	0.0400	192.5000	0.0000	1.0995
428	0.4426	0.4415	1.1058	0.0000	0.0869	1.4777	0.2900	0.0400	192.5000	0.0000	1.0995
430	0.4426	0.4415	1.1066	0.0000	0.0871	1.4801	0.2907	0.0400	192.5000	0.0000	1.0995
432	0.4426	0.4415	1.1074	0.0000	0.0872	1.4826	0.2914	0.0400	192.5000	0.0000	1.0995
434	0.4426	0.4415	1.1083	0.0000	0.0873	1.4851	0.2923	0.0400	192.5000	0.0000	1.0995
436	0.4426	0.4415	1.1091	0.0000	0.0875	1.4877	0.2933	0.0400	192.5000	0.0000	1.0995
438	0.4426	0.4415	1.1100	0.0000	0.0876	1.4904	0.2944	0.0401	192.5000	0.0000	1.0995
440	0.4426	0.4415	1.1109	0.0000	0.0878	1.4930	0.2954	0.0401	192.5000	0.0000	1.0995
442	0.4426	0.4415	1.1117	0.0000	0.0879	1.4955	0.2962	0.0400	192.5000	0.0000	1.0995
444	0.4426	0.4415	1.1127	0.0000	0.0880	1.4982	0.2975	0.0401	192.5000	0.0000	1.0995
446	0.4426	0.4415	1.1136	0.0000	0.0881	1.5009	0.2986	0.0401	192.5000	0.0000	1.0995
448	0.4426	0.4415	1.1145	0.0000	0.0882	1.5037	0.2999	0.0401	192.5000	0.0000	1.0995
450	0.4426	0.4415	1.1154	0.0000	0.0883	1.5065	0.3014	0.0402	192.5000	0.0000	1.0995
452	0.4426	0.4415	1.1163	0.0000	0.0884	1.5092	0.3023	0.0400	192.5000	0.0000	1.0995
454	0.4426	0.4415	1.1173	0.0000	0.0886	1.5123	0.3043	0.0403	192.5000	0.0000	1.0995
456	0.4426	0.4415	1.1185	0.0000	0.0886	1.5151	0.3056	0.0400	192.5000	0.0000	1.0995
458	0.4426	0.4415	1.1194	0.0000	0.0888	1.5186	0.3083	0.0404	192.5000	0.0000	1.0995
460	0.4426	0.4415	1.1203	0.0000	0.0889	1.5217	0.3101	0.0402	192.5000	0.0000	1.0995
462	0.4426	0.4415	1.1216	0.0000	0.0890	1.5249	0.3121	0.0400	192.5000	0.0000	1.0995
464	0.4426	0.4415	1.1230	0.0000	0.0892	1.5295	0.3168	0.0408	192.5000	0.0000	1.0995
466	0.4426	0.4415	1.1239	0.0000	0.0894	1.5333	0.3197	0.0405	192.5000	0.0000	1.0995
468	0.4426	0.4415	1.1252	0.0000	0.0895	1.5374	0.3233	0.0407	192.5000	0.0000	1.0995
470	0.4426	0.4415	1.1266	0.0000	0.0897	1.5420	0.3275	0.0409	192.5000	0.0000	1.0995
472	0.4426	0.4415	1.1281	0.0000	0.0901	1.5500	0.3376	0.0428	192.5000	0.0000	1.0995
